-127
-127.2
-128.2
-129.4
-130.5
-131.1
-131.1
-130.3
-128.9
-127.1
-125.7
-125.5
-126.3
-127.8
-128.9
-129.4
-129.6
-130.3
-132.3
-135.1
-137.9
-140.1
-141.1
-141.3
-140.9
-140.5
-140.5
-141.5
-144.2
-147.5
-150.5
-151.9
-151.1
-148.2
-145
-142.7
-143
-145.6
-150.5
-156.5
-162.7
-167.5
-170.4
-170.8
-169.2
-166.1
-162.6
-160
-158.9
-159.3
-160.9
-162.4
-162.6
-161.4
-159.4
-157.5
-157
-158.2
-161
-165
-168.8
-171.4
-172
-170.8
-168
-164.1
-159.3
-154.1
-149
-144.6
-141
-138.5
-137.4
-137.5
-138.2
-139.6
-141.2
-142.2
-142.1
-140.3
-136.8
-132.3
-128.3
-125.9
-124.9
-125.1
-125.7
-126.5
-127.3
-128.2
-129.6
-131.1
-132.4
-133.8
-135
-136.1
-136.7
-137.1
-136.8
-135.8
-134.2
-132.4
-130.8
-129.9
-129.7
-129.1
-128.3
-127.2
-126.3
-125.6
-125.4
-125.2
-124.7
-123.6
-121.7
-118.6
-114.4
-109.3
-103.9
-99.1
-96.1
-95
-95.4
-96.2
-96.9
-97
-96.7
-96.5
-96.7
-97.5
-99.7
-102.8
-105.7
-106.7
-104.4
-98.9
-91.2
-83.3
-76.6
-72.2
-70.6
-70.9
-71.7
-71.6
-69.5
-65.3
-59.9
-55.2
-51.6
-49.9
-49.6
-50
-50
-49.3
-46.8
-42.9
-38.4
-34
-31
-30
-31.5
-35.4
-41.2
-47.2
-52.3
-55.3
-55.6
-53.7
-50.2
-46.7
-43.3
-40.7
-39
-37.5
-36.3
-35
-33.6
-32.2
-31.2
-30.9
-31.4
-32.2
-33.2
-34.5
-35.9
-37.3
-38.4
-38.6
-37.1
-33.9
-29.3
-24.1
-19.3
-15.4
-12.6
-10.9
-10.6
-12.2
-15.3
-19.1
-21.9
-23.4
-23.4
-23.1
-22.7
-22.3
-21.6
-20.3
-18.6
-17.3
-16.8
-18.4
-22.9
-30.2
-39.4
-48.6
-55.6
-58.2
-55.6
-49.1
-41.6
-36
-34.2
-36.8
-42.9
-50.4
-58.1
-64.3
-68.2
-69
-67.4
-64.3
-60.8
-58
-56.9
-58.2
-61.8
-67.8
-75.4
-83
-89
-92.8
-94.6
-95.9
-97.7
-100.5
-103.6
-106.3
-108.5
-109.9
-110.7
-110.6
-109.4
-107.3
-104.3
-101.3
-98.7
-97.4
-97.7
-100.2
-105.1
-112.1
-119.7
-126.5
-130.7
-131.8
-130.4
-127.9
-125.8
-124.7
-124.9
-126.1
-128.1
-130.7
-133.7
-137.4
-141.6
-145.8
-149.4
-151.7
-152.2
-150.6
-147
-142.3
-137.5
-134.4
-134.1
-136.6
-141.6
-147.1
-151.9
-155.1
-155.8
-154.7
-152
-149.2
-146.8
-145.2
-144.6
-145.1
-146.5
-149.1
-152.3
-155.4
-157.8
-158.9
-158.8
-158.9
-160
-162.6
-166.6
-170.6
-173.4
-174.5
-173.6
-171.3
-168.6
-166.2
-164.7
-164.2
-164.6
-165.4
-166.2
-167
-168.2
-169.7
-171.2
-172.4
-173.2
-173.9
-175
-176.1
-177.1
-177.7
-178.1
-178.8
-180.5
-182.5
-184.9
-186.5
-187.1
-186.5
-184.8
-182.3
-179.1
-175.8
-173.7
-173
-173.8
-175.8
-178.2
-180.6
-182.5
-183.1
-182.7
-181.1
-179.3
-178.2
-178.2
-179.7
-181.4
-182.7
-183.1
-182.5
-181.8
-181.5
-182.3
-184.4
-187
-189.4
-190.5
-189.5
-187
-183.5
-180.4
-178.8
-178.7
-179.5
-180.4
-180.7
-180.9
-181.8
-184.3
-188.3
-193.3
-198.5
-202.9
-206.1
-208.1
-208.7
-208.1
-206.7
-204.7
-202.3
-199.7
-197.1
-194.3
-191.3
-188
-184.9
-182.5
-181.1
-180.8
-181.3
-182.3
-183.4
-184.2
-184
-182.1
-178.9
-175.4
-172.8
-172.7
-175.1
-179.9
-185.7
-191.1
-194.8
-196.5
-196.8
-196.8
-197
-198.1
-200
-202.5
-205
-207
-208.4
-209.8
-211.9
-215.5
-220.8
-227
-233.6
-240
-246.5
-252.8
-258.9
-264
-267.5
-268.7
-267.3
-263.7
-258.5
-253.1
-248.7
-245.8
-245.2
-246.8
-250.3
-254
-256.4
-255.8
-251.7
-244.7
-236.8
-230.6
-227.1
-226
-225.5
-223
-217.2
-208.4
-198.1
-188.1
-179.5
-172.3
-165.9
-158.8
-150.1
-139.5
-127.8
-115.8
-104.9
-95.2
-86.6
-78.2
-68.9
-57.9
-45.2
-31.3
-17.1
-3.1
10.5
24.2
39.1
55.8
74.3
94
113.8
133.2
150.9
166.4
178.4
186.9
193.5
199.7
207.9
220
236.1
254.9
274.4
293
309
321.3
330.2
337.1
344.4
354.3
368.6
387.5
408.5
427.9
442.2
449.9
451.8
450
447.8
447.4
449.5
453.5
457.9
460.6
460.3
456.8
450.7
443.5
436.1
429.1
422.6
416.4
409.6
402.4
394.8
387.7
381.3
375.4
368.8
360.5
350.2
337.6
323.7
309.3
295.5
283.3
273.5
266.3
262
259.3
256
249.8
238.6
221.8
201.1
179.1
158.5
141.7
128.3
117
106
93.8
80
64.3
47.5
29.9
12.5
-4
-18.5
-29.7
-37.4
-42
-45.4
-49.4
-55.5
-64.4
-76.3
-90.1
-104.4
-117.5
-128.4
-137.1
-144.2
-150.4
-156.5
-163.2
-170.4
-177.3
-182.5
-184.9
-184.4
-181.5
-177.1
-172.3
-168
-164.9
-163.7
-163.6
-164.4
-164.7
-163.9
-161.9
-158.8
-155.2
-151.7
-148.7
-145.8
-142.4
-137.9
-131.9
-124.7
-117.2
-110.5
-105.9
-104.1
-104.6
-106.5
-108.5
-110.4
-112.7
-115.7
-119.3
-121.9
-123
-122.3
-120.4
-118.2
-116.4
-114.5
-112.7
-111.4
-110.7
-110.5
-110.6
-110.6
-110.3
-110.4
-112
-115.1
-120.2
-126.4
-132.7
-137.3
-139.3
-138.5
-134.7
-129.3
-123
-116.8
-111.5
-107.7
-105.9
-106.5
-108.9
-112.9
-117.2
-121.1
-124
-125.6
-125.9
-124.9
-123.3
-121.9
-121
-120.3
-119.9
-119.5
-118.7
-117.9
-117.3
-117.4
-118.6
-120.8
-123.7
-126.4
-127.8
-127.4
-125.2
-122.6
-119.9
-117.7
-116.4
-116
-116.2
-116.8
-117.5
-118.1
-118.7
-120.4
-124.1
-129.9
-137.3
-144
-148.3
-148.9
-146.1
-141.1
-135.7
-131.7
-130.2
-131.7
-135.6
-140.4
-144.3
-145.7
-144.5
-141.2
-136.7
-132.3
-128.9
-127.2
-127.6
-129.9
-133.5
-137.3
-140.8
-143.2
-144.3
-144
-142.2
-140
-137.3
-134.8
-132.7
-131.4
-130.8
-131.1
-132.2
-133.5
-134.8
-135.9
-136.5
-136
-134.6
-132.4
-130.1
-128.2
-127.1
-127.3
-128.5
-130.1
-131.7
-132.4
-131.4
-128.5
-124.2
-119.3
-115.2
-113.2
-113.3
-115.1
-117.4
-119
-119.6
-119.7
-119.6
-119.6
-119.6
-119.6
-118.5
-116.3
-113.2
-109.8
-107.2
-105.9
-106.1
-106.9
-107.6
-107.5
-106.4
-104.9
-103.2
-101.3
-98.7
-95.6
-92.7
-90.9
-90.9
-92.6
-95.1
-97.3
-98.2
-97.9
-96.9
-96
-95.9
-96.3
-96.4
-96
-95.4
-94.4
-93
-90.9
-88.2
-85.1
-82.6
-80.6
-79.2
-78.2
-77.7
-77.4
-77.3
-77
-76.8
-76.1
-74.9
-73.5
-72.7
-73.4
-75.8
-79.9
-84.9
-88.9
-90.9
-90.6
-88.6
-86.1
-84.2
-83.2
-82.9
-82.2
-81
-78.6
-75.3
-71
-66.3
-61.5
-57.4
-55
-54.7
-57.1
-61.3
-66.2
-70.2
-72.1
-72.2
-71.1
-70.1
-69.7
-69.7
-69.6
-69.4
-68.6
-67.8
-67.3
-67.5
-68.3
-69.2
-69.5
-69.2
-68
-66.7
-65.6
-65
-65.1
-65.5
-66.1
-66.6
-67
-67.9
-69.6
-72.2
-75.5
-78.5
-79.8
-79.2
-77.3
-74.6
-72.8
-71.9
-72.4
-74
-76.1
-78.4
-80.8
-82.9
-84.7
-85.9
-85.6
-84.6
-83.3
-83.6
-86.2
-90.9
-96.9
-102.7
-107.1
-108.9
-107.5
-102.8
-95.8
-88.1
-81.7
-78.4
-79.3
-84.4
-92.1
-100.2
-107
-111.7
-114.6
-116.7
-118.8
-120.9
-122.9
-123.8
-123.9
-123.4
-122.7
-122.6
-123
-123.2
-123.1
-122.3
-120.6
-118.1
-115
-112.2
-110.4
-109.7
-109.8
-110.6
-111.5
-112.9
-114.5
-116.4
-118.5
-120.3
-121.4
-121.5
-120.9
-120.5
-120.8
-122.1
-123.7
-124.9
-124.7
-122.8
-120
-117.3
-115.8
-115.7
-117.4
-120.3
-124.2
-127.2
-128.2
-126.2
-121.7
-116.3
-112.2
-110.8
-111.4
-113
-113.7
-112.9
-110.8
-107.8
-104.9
-102.8
-101.3
-100.5
-99.7
-98.7
-97.2
-95.3
-93.2
-91.4
-89.8
-88.6
-87.5
-86.5
-85.5
-84.3
-82.7
-80.4
-77.8
-76
-75.6
-77.7
-81.9
-87.2
-92.2
-95.8
-97.9
-98.4
-97.5
-95.7
-93.1
-90.3
-88.2
-87.6
-88
-88.9
-89
-87.3
-84.2
-80.9
-78.6
-77.9
-77.6
-77.1
-75.2
-71.8
-67.5
-63.2
-59.8
-57.9
-57.4
-57.8
-58.9
-60.3
-61.8
-63.1
-63.3
-62.6
-60.7
-57.9
-54.8
-51.6
-49.4
-48.7
-49.6
-51.3
-52.3
-51.7
-49
-45.3
-41.7
-39.2
-38
-37.6
-36.8
-35
-32.3
-28.9
-25.8
-23.9
-24
-26.4
-30.2
-34.4
-38
-39.9
-40.4
-39.4
-37
-33.8
-30.2
-26.8
-24.4
-22.9
-22.5
-22.6
-22.9
-23
-22.6
-21.3
-18.5
-14.4
-10
-6.7
-6.2
-8.2
-12.3
-16.7
-19.7
-20.7
-19.7
-17.4
-15.2
-13.9
-14.2
-15.7
-17.5
-18.5
-17.7
-15
-11.1
-6.8
-3.2
-1.2
-0.5
-1.1
-1.9
-3.1
-4.4
-6.3
-8.1
-9.4
-9.5
-7.7
-4.3
-0.7
1.7
1.8
0
-2.8
-5.4
-6.3
-4.8
-1.3
2.7
6.2
7.7
6.9
4.6
2.1
0.6
1.3
3.9
7.8
11.3
13.3
13.4
11.9
9.9
8.3
7.7
8.4
10.5
13
15.5
17.8
20.1
22.5
25.1
27.1
27.9
27.4
25.9
24.3
23.3
22.9
22.3
20.5
17
12.1
6.9
2.9
0.4
-0.5
0.1
1.6
3.9
6.7
9.1
10.6
10.5
8.6
6
3.6
2.6
3
4.7
6.7
8.7
9.8
9.2
7.7
4.9
1.8
-1.2
-3.9
-5.9
-6.8
-6.1
-5.1
-4.6
-5.5
-8.2
-12.3
-16.9
-21.6
-25.3
-28
-29.1
-28.8
-27.8
-26.5
-25.2
-24.2
-23.4
-23.1
-23.2
-23.8
-24.6
-26
-28.2
-31.1
-34.3
-36.9
-38.7
-39.5
-39.5
-39.1
-38.4
-37.9
-37.7
-38.4
-39.8
-42
-44.8
-48.1
-51.2
-54.1
-56.7
-58.4
-59.6
-59.9
-59.8
-59.2
-58.3
-57.4
-57.3
-57.9
-58.6
-58.8
-58
-56.4
-55
-54.8
-56.1
-58.4
-60.5
-61.8
-62.6
-63.6
-65.3
-68.1
-71.5
-74.9
-77.3
-78.4
-78.7
-78.2
-77.7
-77.2
-76.4
-75.4
-74
-71.4
-68
-64
-60.9
-59.5
-60.6
-64.1
-69.2
-74.4
-78.4
-80.5
-80.9
-80.2
-79.6
-79.4
-79.8
-80.6
-81.8
-83
-84.1
-84.8
-85.6
-86.4
-86.8
-86.1
-84.2
-81.9
-80.6
-81
-83.6
-87.9
-92.8
-97
-99.6
-100.9
-101.2
-101.6
-102.8
-104.9
-108.2
-111.8
-115.1
-117.5
-118.9
-119.3
-119
-117.8
-115.9
-113
-109.5
-105.4
-101.8
-98.7
-96.8
-96.2
-96.4
-96.8
-96.5
-95.4
-93.5
-91.2
-89.3
-88.2
-88.5
-90.3
-92.7
-95.1
-96.3
-96.3
-95.5
-94.4
-93.7
-93.4
-94.1
-95
-96
-96.4
-95.7
-94
-91.1
-88.4
-86.9
-87.7
-90.5
-94.2
-97.2
-98.5
-98.4
-97.7
-97.8
-99
-100.9
-102.3
-102.1
-100.3
-97.4
-94.6
-92.2
-90.8
-89.9
-89.4
-88.8
-87.8
-86.5
-85.1
-83.9
-83.5
-83.7
-84.1
-84.4
-84.1
-83.7
-83.9
-84.8
-86.1
-87.3
-87.8
-87.8
-86.9
-85.8
-84.5
-83.4
-82.6
-82.5
-83.2
-84.6
-86.3
-87.8
-88.7
-88.7
-88.2
-88.1
-88.8
-91.2
-95.4
-100.8
-106.6
-111
-112.8
-111.3
-107.3
-102.3
-98.2
-96.2
-97
-100.1
-104.9
-110.1
-114.6
-117.6
-118.9
-118.7
-117.9
-117
-116.3
-115.9
-116
-116.8
-118.2
-120.2
-122.7
-124.3
-123.9
-121.5
-117.5
-113.4
-110.6
-110
-111.6
-114.2
-116.9
-118.8
-120
-120.5
-120.3
-120.3
-120.6
-122
-124.4
-127.3
-129.9
-131.2
-130.9
-129
-126.9
-125.1
-124.7
-125.7
-127.6
-130.7
-133.9
-137
-139
-139
-137.2
-133.7
-129.4
-125.4
-122.7
-122.1
-124.1
-128.3
-133.9
-139.7
-144.4
-147.6
-149.3
-150
-150
-149.3
-147.7
-145.4
-143.3
-142.3
-142.9
-144.8
-146.7
-147.7
-147.4
-145.7
-143.6
-141.8
-141.1
-141.9
-143.8
-146.1
-147.7
-148.1
-147.3
-146
-144.9
-144.5
-144.8
-145.2
-144.9
-144.6
-144.2
-144.2
-145.3
-147.6
-150.8
-154.5
-157.5
-158.4
-156.5
-151.7
-144.9
-138
-132.9
-130.5
-130.8
-132.7
-135
-136.5
-137.1
-136.5
-135.3
-133.6
-131.9
-129.9
-128.1
-126.4
-124.4
-122.7
-121.5
-121.4
-123
-126.4
-130.9
-135.5
-139.1
-140.7
-140.2
-138.5
-136.4
-134.3
-132.1
-129.7
-126.8
-123.6
-120.3
-117.7
-115.8
-115.1
-115.1
-115.7
-116.7
-117.9
-119.3
-120.2
-120
-118.4
-115.3
-110.8
-105.5
-100.8
-97
-95.1
-95.1
-96.5
-98.1
-99.2
-99.9
-100.7
-101.9
-103.5
-104.9
-105.4
-104.2
-101.8
-98.9
-96.8
-96.3
-97.6
-100.1
-102.8
-104.9
-106.2
-106.9
-107.4
-107.8
-108.6
-109.3
-109.7
-109.1
-107
-103.5
-99
-94.5
-91.4
-90.4
-91.4
-93.7
-96.2
-98.3
-99.6
-100.2
-100.1
-99.3
-97.7
-95.8
-93.9
-92.3
-91.1
-90.3
-89.6
-89.2
-89.8
-91.7
-95.1
-99.3
-103.5
-106.8
-108.4
-108.4
-107.4
-106.6
-105.9
-105.4
-103.8
-101
-97.5
-94.8
-93.5
-94.1
-95.3
-95.8
-94.8
-92.3
-89.2
-87
-86.3
-87.6
-89.8
-92
-93.3
-93.1
-91.4
-88.6
-85.1
-81.4
-78.5
-76.3
-75.1
-74.9
-75.5
-77.5
-81.3
-86.3
-91.8
-96.6
-99.7
-100.3
-98.8
-96
-93.9
-93.1
-94.2
-96.5
-99.2
-101.7
-103.1
-103
-101.6
-99.4
-97.2
-96.1
-96.2
-97.8
-100.5
-103.9
-107.3
-110.1
-112.3
-113.1
-112.7
-110.9
-107.9
-104.4
-101.3
-100
-100.8
-103.8
-107.6
-111
-112.9
-113.4
-112.4
-110.4
-108.4
-107.5
-108.3
-111.5
-116.2
-120.6
-123.1
-123.3
-121.7
-119.2
-117.2
-116.6
-117.8
-120.7
-124.7
-128.9
-132.2
-133.9
-133.7
-132.4
-130.7
-129.5
-128.7
-128.3
-128.2
-128.8
-130.4
-132.6
-135.7
-139
-142.6
-146.4
-150.3
-154.4
-158
-160.2
-160.7
-158.6
-155.4
-152.3
-150.7
-151.1
-152.2
-153.1
-152.7
-151.2
-149.3
-148.2
-149.2
-152.3
-156.7
-160.8
-163.6
-164.8
-164.3
-163.1
-162
-161.7
-162.5
-164.2
-166
-167.2
-167.1
-165.7
-163.6
-162.1
-161.8
-163.4
-166.1
-168.9
-170.3
-169.8
-167
-162.7
-157.4
-152.1
-147.5
-143.7
-141.2
-140.5
-142.5
-146.4
-151.2
-155
-156.8
-156.3
-153.8
-150.4
-147
-144.5
-142.6
-140.9
-138.6
-135.2
-130.9
-126.5
-122.7
-120.3
-119.7
-120.1
-120.6
-121.1
-121.9
-123.5
-125.8
-128.4
-130.1
-129.9
-127.5
-123.4
-118.8
-114.6
-111.8
-110.3
-109.7
-110
-110.8
-112.1
-113.4
-115.2
-117.9
-121.6
-126.2
-130.7
-133.9
-134.6
-132.5
-127.7
-121.4
-115
-109.9
-106.7
-106.2
-107.9
-111.4
-115.4
-118.7
-120.8
-120.3
-117.9
-114.1
-109.8
-106.1
-103.8
-102.4
-101.6
-100.8
-99.9
-99
-98.3
-97.5
-95.7
-92.3
-87.5
-82.1
-77.7
-75.3
-75.7
-78.2
-81.7
-84.9
-86.6
-86.7
-85
-82.3
-79.2
-76
-73.3
-70.8
-68.2
-65
-61.1
-56.8
-52.1
-47.1
-41.9
-36.8
-32.5
-29.4
-27.6
-27.1
-26.8
-26.2
-24.6
-22.3
-19.3
-16.4
-13.7
-11.6
-10.8
-11
-12
-13.2
-14.2
-14.9
-15.7
-16.7
-19
-21.8
-24.8
-27.5
-28.9
-28.8
-27.3
-24.9
-22.3
-20
-18.4
-17.9
-18.3
-19.2
-20.2
-20.5
-19.7
-17
-12.9
-8.3
-4.5
-2.5
-2.7
-4.7
-7.3
-9.6
-10.8
-11.1
-10.8
-10.5
-10.1
-9.5
-8.5
-6.7
-5
-4
-4.4
-6.1
-8.7
-12.2
-16.4
-20.8
-25.1
-28.9
-31.2
-31.7
-30.2
-27
-23
-19.7
-18.3
-19.1
-21.3
-23.9
-26.1
-27.5
-28.5
-30
-32.4
-35.8
-39.6
-43.3
-46.6
-49.3
-52.4
-56.4
-61.2
-66.2
-70.7
-73.9
-75.5
-75.5
-74.6
-73.6
-73.3
-74.3
-77
-80.8
-84.8
-88.7
-92
-94.7
-97.2
-99.7
-102.9
-106.4
-110.6
-114.6
-117.9
-119.4
-119.1
-117.9
-116.1
-114.7
-114.1
-114.5
-116.2
-119.5
-124.2
-129.1
-133.8
-137.4
-139.3
-139.6
-138.3
-136.8
-136.3
-137.6
-140.3
-143.7
-146.6
-148.4
-149.7
-150.5
-151.2
-152.3
-153.7
-154.7
-154.4
-152.5
-149.3
-145.9
-143.1
-142.3
-143.6
-146.8
-151.1
-155.4
-158.8
-160.3
-160.3
-159.1
-157.7
-156.3
-154.9
-153.5
-152.1
-151
-150.8
-151.2
-152.2
-153.1
-153.3
-152.4
-150.7
-148.6
-147
-147.1
-148.8
-151.4
-154.1
-156.1
-157.6
-159
-161
-163.3
-164.9
-165.4
-164
-161.7
-159.3
-158.2
-159
-162.2
-167.1
-172.5
-177.4
-180.1
-180.5
-178.2
-173.8
-168.7
-164.2
-161.2
-160.3
-161.4
-164
-167.7
-171.1
-174
-175.4
-175.5
-174.9
-174
-173.6
-174.3
-175.1
-176
-176.5
-176.5
-177.1
-178.5
-181.3
-184.6
-187.5
-188.6
-186.8
-182.1
-175.9
-169.7
-164.9
-162.2
-161.1
-160.9
-160.2
-158.5
-155.7
-153.1
-152
-153.6
-157.6
-162.3
-165.9
-166.5
-163.9
-159.5
-155.7
-153.8
-154
-155.6
-156.8
-157.5
-157.3
-157.2
-157.5
-157.9
-157.8
-156.4
-154.1
-151.9
-150
-148.3
-147.1
-145.8
-145.4
-145.9
-147.8
-150
-150.9
-149.6
-146.1
-141.3
-136.8
-134.3
-133.8
-135.7
-138.7
-141.5
-143.5
-144
-143.3
-142.6
-142.9
-145.3
-150.2
-157
-164.7
-171.8
-177.5
-181.2
-183.4
-184.7
-185.7
-187.1
-188.7
-190.8
-193.5
-197
-201.4
-206.4
-211
-214.6
-216.3
-215.6
-212.7
-208.5
-203.8
-200
-197.3
-195.4
-194
-192.9
-192.2
-191.7
-191
-190.1
-188.7
-186.4
-183.2
-179.5
-175.8
-172.6
-170.1
-167.5
-164.3
-159.7
-152.9
-144
-133.3
-121.9
-110.9
-101
-92.1
-83.5
-74.1
-63
-51.1
-39.3
-28.9
-20
-11.3
-1.2
10.9
25.3
40.9
56.5
71.3
84.7
97.3
109.9
122.5
135
147.6
159.9
173.2
188
205
223.3
241.7
258.8
273.5
285.4
295.1
303.5
311.7
320.5
330.9
342.8
355.5
367.6
378.6
388
396.1
403.4
410.3
416.9
423
427.7
430.9
432.6
433.2
433
432.2
430.6
427.9
423.6
418.1
411.4
403.8
395.8
387.7
380.2
373.3
367
361.2
355.4
349
341
331.2
320.1
309.5
301.1
295.2
290.8
285.9
278.4
267.4
252.8
236
218.6
202.1
187.6
174.9
162.8
151.3
139.4
126.7
112.6
96.9
79.4
60.7
41.8
23.4
6.4
-8.7
-22.5
-35.6
-48.6
-61.5
-74
-85.4
-95.3
-103.8
-111.4
-118.6
-125.9
-133.9
-142.8
-153.6
-166.5
-181.1
-196.2
-210
-221.2
-228.5
-231.8
-232.1
-230.6
-229.2
-228.8
-229.1
-229.3
-228.3
-225.4
-221.3
-217.4
-215.1
-215.7
-218.2
-221
-221.6
-218.6
-212.1
-204
-196.1
-190.4
-187.4
-186.3
-186.1
-185.8
-185.4
-185.2
-185.1
-185
-184.2
-182.4
-179.5
-175.9
-172.6
-170.4
-169.8
-170.9
-173
-175.1
-176.5
-176.9
-176.1
-173.6
-169
-162.1
-153.8
-146.4
-141.7
-140.5
-142.6
-146.5
-150.8
-154.3
-156.4
-157
-156.3
-154.6
-152.5
-150.6
-149.7
-150.1
-152.6
-156.4
-160.6
-164.2
-165.9
-166.1
-165.7
-165.4
-166.1
-167.9
-170.2
-172.5
-173.7
-172.9
-169.8
-164.7
-158.8
-153.8
-150.7
-150.4
-152.1
-155.1
-158.4
-161.6
-163.7
-164.4
-163.1
-160.1
-156.1
-152.5
-150.5
-150.8
-153.2
-157
-161.2
-164.5
-166.9
-168.9
-171.2
-174
-177
-179
-179.3
-177.4
-173.2
-167.7
-162.8
-160
-160
-162.3
-165.3
-167.5
-167.9
-166.9
-165.2
-163.7
-162.9
-162.4
-161.7
-160.2
-157.8
-154.2
-149.3
-143.4
-136.7
-130.5
-125.7
-123.5
-124.2
-127.3
-132.1
-137.3
-141.5
-144.2
-145.6
-146
-145.8
-146.1
-147.4
-149.6
-151.9
-153.3
-152.7
-149.9
-145.9
-141.6
-138.1
-136.1
-135.9
-136.9
-138.9
-140.8
-142
-142.4
-141.6
-139.8
-136.9
-132.8
-127.9
-123.1
-119.5
-117.5
-117.6
-119.2
-121.6
-124
-126.2
-128.1
-130.3
-132.8
-135.2
-137
-137.5
-137.7
-138.1
-139.8
-142.5
-145.1
-146.7
-146.2
-143.4
-138.6
-132.6
-126.7
-122.3
-120.5
-120.8
-122.5
-124.7
-126.4
-127
-126.2
-124.5
-122.2
-119.9
-117.6
-115.9
-114.8
-114.6
-115.7
-118
-120.9
-123.7
-125.4
-125.9
-125.5
-124.9
-124.3
-124.3
-125.4
-127.6
-130.6
-133.8
-136.4
-137.5
-136.7
-134.5
-132
-130.5
-130.7
-132.8
-135.8
-139
-141.5
-143.4
-144.7
-145.1
-144.1
-141.9
-139
-136.7
-135.8
-136.9
-139.4
-142.8
-146
-148
-148.9
-148.6
-147.7
-146.7
-146.2
-146.6
-147.7
-149.1
-150.4
-150.7
-149.5
-146.8
-143.6
-141.2
-140.6
-142
-144.7
-147.6
-149.9
-150.6
-150.1
-148.4
-146.4
-144.6
-143.8
-144.1
-145.7
-148.4
-151.2
-153.1
-153.1
-150.8
-146.8
-142.4
-138.9
-137.3
-138.3
-141.2
-145.3
-148.5
-149.6
-148.1
-144.4
-139.8
-135.8
-134.1
-135.1
-138.7
-143.7
-148.7
-152.2
-153
-151
-146.6
-141.2
-136.1
-132.5
-131
-132.1
-135.3
-140
-144.9
-148.2
-148.8
-146.1
-140.7
-133.9
-127.6
-123.4
-122.3
-124.3
-128.6
-133.6
-138.1
-140.9
-142
-141.4
-140.3
-139.9
-141
-144.2
-149.3
-155.3
-160.5
-163.2
-163.1
-160.4
-156.7
-153.2
-150.2
-147.3
-144.7
-142.7
-141.3
-140.7
-140.5
-140.5
-140.6
-141.2
-142.2
-143.2
-143.6
-143.2
-141.6
-139.2
-137.1
-135.7
-135.6
-135.9
-136.3
-136.3
-135.9
-135.6
-136.1
-137.7
-140
-142.3
-143.7
-143.8
-143
-141.6
-139.8
-138
-136.1
-134.5
-133.9
-134.4
-136.8
-140.6
-145.9
-151.6
-156.2
-158.2
-156.7
-151.8
-144.3
-135.9
-128.3
-122.8
-120
-119.7
-121.9
-125.7
-129.6
-132.8
-134.5
-134.9
-133.8
-131.6
-128.7
-125.7
-123.1
-120.8
-119
-117.6
-116.8
-116.9
-118
-119.9
-122
-124.3
-126.4
-127.9
-129
-129.4
-128.8
-127.8
-126.4
-125.2
-124.8
-125.8
-128.4
-132.9
-138.6
-144.4
-148.5
-150
-148.5
-145.2
-142
-140
-139.2
-139.2
-139.2
-138.2
-136.3
-133.5
-131.1
-129.8
-129.4
-129.3
-128.7
-127.5
-127.1
-127.8
-129.6
-131.1
-131
-128.6
-124.3
-119.5
-115.5
-113.9
-114.8
-117.5
-120
-120.7
-119.1
-115.4
-111.3
-108.5
-108
-109.7
-112.3
-114.2
-114.1
-111.3
-106.6
-101.1
-96.5
-93.5
-93.2
-95.1
-98.3
-101.7
-103.2
-101.3
-96.2
-88.5
-79.9
-72.1
-66.6
-64
-64.1
-65.3
-66
-64.6
-61.2
-56.6
-52.5
-49.5
-48.2
-47.8
-48
-48.6
-48.8
-48.4
-47.4
-45.8
-44.6
-44.2
-44.5
-44.9
-44.9
-43.9
-42.2
-40.5
-39.5
-39.2
-38.7
-37
-33.8
-29.7
-26.1
-23.7
-22.5
-22
-21.8
-21.7
-22.1
-22.8
-23.8
-24.2
-23.9
-23.2
-22.5
-22
-22
-22.4
-23.4
-24.6
-25.6
-26.1
-26.1
-25.8
-25.9
-26.4
-26.7
-25.7
-23.1
-19.1
-14.7
-11.3
-9.9
-10.4
-11.8
-13.3
-13.6
-13
-11.5
-9.9
-8.8
-8.5
-9.3
-10.6
-12
-13
-13.7
-13.9
-13.7
-12.8
-11.5
-10.1
-8.9
-8.9
-10.9
-15.2
-21.1
-27.1
-30.9
-31.6
-28.5
-23.3
-17.4
-13
-11
-11.7
-14.5
-18.3
-22.4
-26.3
-29.1
-30.5
-30.3
-29
-27.3
-26.3
-26.7
-28
-30.4
-33
-35.5
-37.5
-38.3
-37.3
-35.1
-33.1
-32.6
-34.4
-38.3
-42.8
-46.9
-49.5
-50.5
-50.6
-49.9
-48.8
-47.4
-45.4
-43
-41.1
-40.5
-41.6
-44.8
-49.2
-53.7
-57.5
-59.4
-59.3
-58.1
-56.9
-57.6
-60.9
-67
-74.9
-82.8
-89.2
-92.7
-93.3
-91.8
-89.8
-88
-86.9
-85.8
-84.4
-82.8
-81.9
-83.1
-87.1
-93.6
-100.9
-107.1
-111
-112.3
-111.4
-108.7
-104.8
-100.3
-96
-92.7
-91.2
-91.8
-94
-97.8
-102.4
-107.7
-113.1
-118.3
-122.2
-124.8
-126.3
-127.4
-128.5
-129.9
-131.3
-132.9
-134.8
-136.2
-136.8
-136.7
-135.6
-133.7
-131
-127.8
-124.7
-122.1
-120.5
-120.2
-121.1
-123.1
-126.1
-129.3
-131.9
-134.2
-136.6
-139.5
-143.2
-146.7
-149
-149.3
-147.8
-145.8
-144.6
-145.1
-147.3
-150.5
-153.6
-156
-157.2
-157.5
-157.3
-157.1
-157.5
-158.2
-159.7
-161.8
-165.4
-169.8
-174.9
-179.5
-182.6
-183.5
-182
-179
-175.3
-172.2
-170.2
-169.4
-169.1
-168.3
-167.1
-165
-162.4
-159.3
-156.3
-154
-153.4
-155.3
-159.3
-164.1
-168.3
-170.8
-171.5
-171
-170.2
-170.1
-170.8
-172
-173.4
-174.2
-174.1
-173.5
-172.6
-171.7
-170.5
-168.8
-166.4
-162.7
-158.1
-153.4
-149.2
-147
-146.5
-147.6
-149.4
-151.5
-153.8
-155.8
-157.2
-157.7
-157.2
-156
-153.8
-151.2
-148.9
-147.8
-148.7
-151.3
-154.6
-157.5
-159.7
-160.8
-161.1
-160.8
-160.2
-159.7
-159.1
-158.6
-157.5
-155.8
-154
-152.2
-151.2
-151.1
-151.3
-150.9
-148.9
-145.6
-141.6
-138
-134.8
-132.5
-130.4
-127.9
-124.5
-119.8
-114.6
-110.7
-110.1
-113.4
-119.8
-127.4
-133.5
-136.8
-137.4
-136.5
-135.8
-135.9
-136.4
-136.5
-135.2
-132.8
-129.6
-125.9
-121.5
-117.4
-113.9
-112.3
-112.6
-115
-118.5
-121.9
-124
-124.1
-122.6
-120.5
-119.2
-118.9
-119.1
-119.3
-118.9
-117.6
-115.8
-114.4
-114.5
-116.6
-119.8
-123.1
-125.3
-126.1
-125.9
-125.3
-125.7
-127.2
-129.5
-132.2
-134.3
-135
-133.7
-131.2
-127.8
-124.5
-121.8
-119.7
-118.6
-118.6
-119.8
-121.6
-124
-126.9
-129.5
-130.9
-130.9
-129.2
-126.3
-122.7
-119.3
-117.1
-116.2
-116.2
-116.7
-117.1
-117
-116.8
-116.4
-115.9
-115.3
-114.9
-114.2
-112.9
-110.5
-107.7
-105.6
-106
-109.8
-116.5
-124.3
-131.2
-135.1
-135.7
-133.6
-130.2
-126.4
-122.8
-119.5
-116.1
-113.2
-110.8
-109
-108.4
-109
-110.8
-112.9
-114.8
-115.9
-116.6
-117
-117.4
-117.9
-119
-122
-126.5
-131.8
-136.3
-138.3
-137.1
-133.7
-130
-127.9
-128.8
-132.3
-137.1
-141.8
-144.7
-145.4
-144
-141
-137.8
-135.3
-134.1
-134
-134
-133.6
-132.3
-130.4
-128.5
-128
-129.7
-134
-140.7
-147.9
-154.4
-158.5
-160.4
-160.5
-159.3
-157.5
-155.7
-154.4
-153.2
-152.2
-150.8
-149.6
-149
-149.5
-150.8
-152.7
-154.4
-155.6
-155.9
-155.2
-153.7
-152.2
-151
-150.3
-150.3
-150.6
-150.8
-150.5
-149.3
-147.1
-144.6
-142.3
-140.5
-140
-141
-143.4
-146.7
-149.9
-151.9
-152.3
-151.4
-149.9
-148.7
-148.8
-149.7
-150.8
-151.2
-149.7
-146.2
-141.3
-136.5
-133.2
-132.5
-134.5
-138
-141.4
-143.6
-144
-142.7
-140.4
-138
-136.2
-134.5
-132
-128.5
-124.5
-120.8
-118.3
-117.2
-116.8
-115.8
-113.4
-109.7
-105.8
-103.3
-103.6
-106.8
-111.4
-115.6
-118.1
-118.5
-117.6
-116.6
-115.9
-115.3
-114.2
-112.1
-108.6
-104.8
-101.8
-100.6
-101.7
-103.9
-106.4
-109
-111.6
-114.1
-116.3
-118
-118.6
-118.5
-117.7
-117
-116.6
-116.8
-117.4
-117.6
-117
-115.6
-113.4
-110.9
-108.8
-107.3
-106.9
-107.6
-108.6
-109.4
-109.4
-109.3
-109.6
-110.6
-112.6
-115
-117.2
-118.4
-118.4
-116.9
-114.8
-113.3
-112.9
-113.6
-114.1
-113.8
-112.5
-110.5
-108.3
-106.5
-105
-103.8
-102.9
-102.4
-102.7
-103.9
-105.2
-106.3
-106.2
-104.8
-102.6
-100.4
-99.3
-99.9
-102.9
-108.1
-114.5
-120.4
-124.5
-126.8
-127.9
-128.2
-128.4
-128.4
-128.2
-127.3
-125.5
-122.9
-120
-117.4
-115.4
-114.1
-113.9
-114.7
-116.5
-119.3
-122.7
-126.5
-130.1
-133.5
-135.9
-137
-135.7
-132.3
-127.3
-122
-117.7
-115.6
-116.3
-119.3
-123.3
-127.3
-129.6
-130.1
-128.7
-126
-123
-120
-117.7
-116.1
-115.3
-115.3
-115.9
-117.3
-119.5
-122.9
-127.4
-131.8
-135.2
-135.9
-133.1
-128.2
-123.1
-120.1
-120.1
-123
-127.5
-131.4
-133.6
-133.9
-132.5
-130
-126.4
-121.9
-116.6
-111.4
-107.5
-105.4
-105.9
-108.4
-112
-115.6
-118.2
-119.6
-119.8
-119.4
-118.2
-116.3
-113.6
-110.8
-108.2
-106.6
-105.6
-104.9
-103.5
-101.3
-97.9
-93.7
-88.9
-83.5
-78.1
-73.2
-69.8
-68.7
-69.3
-71.3
-73.9
-76.1
-77.5
-77.8
-77.6
-77.7
-79
-81.4
-84.4
-87
-88.4
-88.8
-88.7
-88.8
-88.9
-89.3
-89.4
-89.4
-89.8
-90.5
-91.4
-92.6
-93.7
-94.1
-94.2
-93.6
-92.9
-92
-91.6
-91.1
-90.9
-90.9
-91.2
-91.2
-90.1
-87.3
-82.6
-76.9
-71.3
-67.6
-65.8
-65.6
-66.2
-67
-67.8
-69
-70.8
-74.2
-78.9
-83.5
-86
-85.1
-80.4
-73.4
-66.1
-61.3
-60.1
-61.9
-65.1
-68.4
-70.4
-70.3
-68.3
-64.9
-60.4
-55.2
-49.8
-44.8
-40.9
-38.6
-37.9
-37.7
-36.6
-34
-30.7
-27.5
-26.2
-26.7
-28.7
-31.5
-34.3
-36.5
-37.5
-37.6
-37
-36.2
-35.4
-34.4
-33.3
-32.7
-33.3
-35.2
-38.7
-43.2
-47.4
-50.3
-51.2
-50.4
-48.8
-47.6
-47.5
-48.9
-51.1
-53.8
-56.6
-58.4
-58.4
-56.2
-52.4
-47.9
-44.2
-41.8
-41.2
-41.8
-43.4
-45
-46.4
-47.7
-48.6
-49.1
-48.7
-47.3
-45.2
-43.4
-43
-44
-47.2
-52.1
-57.5
-62.8
-67.4
-70.6
-72.3
-72.5
-71.7
-70.3
-68.7
-67.3
-66.1
-65.5
-66.4
-69.4
-74.5
-80.4
-85.7
-88.6
-89
-87.3
-84.4
-81.5
-79.9
-79.9
-82.1
-85.6
-90.3
-95.2
-100.1
-104.6
-108
-110.4
-111.6
-112.3
-113.1
-114.2
-115.8
-117.4
-119
-121.3
-124.9
-130.1
-136.8
-143.7
-149.4
-152.5
-152.1
-149.2
-145
-141
-138.4
-137.1
-136.2
-135.8
-135.2
-134.2
-132.8
-131.3
-129.9
-129.4
-129.8
-130.8
-132.1
-133.5
-134.6
-135
-134.9
-133.9
-132.1
-129.7
-126.6
-122.9
-119.4
-117.5
-117.9
-121.8
-128.8
-137.7
-146.8
-154.1
-158.4
-159
-156.3
-151.3
-145
-138.7
-132.8
-127.6
-123.4
-120.8
-120.2
-122.2
-126
-130.7
-135.4
-139.1
-141.5
-142
-140.4
-137.5
-134
-131.5
-130.5
-130.9
-131.9
-132.4
-132.3
-131.7
-131.2
-131.3
-132.1
-134.3
-137.2
-140.8
-144.7
-148.2
-150.1
-150.1
-147.3
-142.9
-137.7
-133.7
-132.8
-135.4
-140.5
-145.9
-149.1
-149.2
-146.5
-142.6
-138.7
-135.7
-134.5
-136.1
-141.3
-150.1
-160.9
-171.3
-178.8
-181.4
-178.9
-172.8
-165.3
-158.9
-155.2
-154.7
-156.8
-159.8
-161.8
-162.3
-161.8
-161.5
-162.8
-165.4
-168.5
-170.8
-170.9
-168.3
-163.6
-157.7
-152.2
-148
-145.7
-145
-145.2
-145.8
-146.1
-146.9
-148.5
-151.6
-155.8
-160.8
-166
-170.9
-174.9
-178.2
-180.8
-182.6
-183.5
-183.2
-181.9
-179.4
-175.8
-170.8
-164.4
-157.5
-151.4
-147.7
-147.1
-149.3
-153.3
-158.1
-162.3
-165
-166
-165.4
-163.4
-160.7
-158.1
-156
-155.2
-155.7
-157.5
-159.7
-161.4
-162.1
-162.6
-164.3
-168.1
-174.1
-180.6
-186.2
-189.7
-190.9
-190.3
-188.6
-186.7
-185.2
-185.5
-188.2
-193.5
-200.9
-209
-216.4
-222.8
-227.7
-231.3
-233.9
-235.3
-235.6
-234.9
-234
-233.9
-235.1
-237.2
-239.4
-240.9
-241.6
-241.3
-240.2
-238.3
-236
-234.6
-234.5
-236.3
-238.6
-239.4
-236.4
-229.3
-219.1
-208.6
-200.6
-196.7
-196.8
-198.7
-200.3
-200.4
-198.3
-194.5
-189.7
-184.2
-178.7
-172.6
-165.7
-156.9
-146.4
-134.8
-122.9
-112.1
-103.4
-96.3
-90
-83.1
-74.3
-63.5
-51
-37.4
-23.2
-9
5.2
19.7
34.7
49.8
64.9
78.7
90.6
100.1
107.7
113.7
119.7
126.8
136
147.8
161.5
176.1
189.9
202.3
212.9
222.6
232.1
242.2
253.4
265.3
277.5
289.4
300.6
311
320.8
329.9
338.6
347.1
354.8
360.8
364.7
365.5
362.9
357.9
351.2
343.3
335.4
328.6
324.3
322.9
323.9
325.9
327.6
327.9
326.5
323.6
319.2
313.1
305.4
295.8
284.9
273.2
261.2
249
236.9
225.6
215.6
207.1
199.4
191
181
169.3
156.8
145
134.2
124.3
114.8
105
94.1
81.7
67.6
52.2
36.3
21.6
8.9
-1.2
-9.5
-17.4
-26
-36
-47.2
-59.1
-70.8
-82.1
-93
-104.3
-116.7
-130.5
-145.3
-160.4
-174.3
-186.2
-195.6
-203.2
-209.5
-214.2
-216.8
-217.1
-215.1
-211.7
-207.8
-204.6
-203
-203.1
-204
-204.8
-204
-200.4
-194
-186.7
-180.6
-177.8
-178.7
-183
-188.9
-194.7
-199.2
-201.5
-201.5
-199.2
-195.4
-191.1
-187.3
-185.1
-184.8
-185.9
-187.8
-189.7
-190.7
-190.7
-189.7
-188.2
-186.4
-184.7
-183
-181.4
-180.3
-179.7
-180
-180.5
-180.8
-180.8
-180.8
-181.1
-182.6
-185
-187
-187.7
-186.1
-183
-179.1
-175.8
-174
-174.4
-177.3
-182.2
-188
-193.3
-196.8
-198
-197.1
-195.1
-193.1
-192.1
-192.7
-194.7
-197.4
-200.2
-201.8
-201.8
-200.1
-197.3
-194
-191.2
-190
-190.1
-191.9
-194.5
-197.2
-199.3
-200.7
-201.4
-202
-201.9
-201.9
-201.1
-199.5
-197.2
-195.1
-193.7
-193.9
-195.5
-198.5
-201.5
-204
-205.1
-204.9
-203.6
-202.3
-201.4
-201.8
-203.7
-207.5
-212.5
-217.7
-222
-224.2
-223.6
-220.4
-215.1
-209.5
-204.7
-202
-202.1
-204.4
-207.6
-209.7
-209.2
-205.4
-198.8
-190.7
-183.2
-178
-176.6
-179.1
-184.9
-192.7
-200.9
-208.1
-213.4
-216.3
-216.9
-215.8
-213.7
-212.1
-212.3
-214.9
-219.6
-225.3
-230.9
-235.3
-238.3
-239.8
-239.9
-238.2
-234.6
-229
-222.1
-215.4
-210
-206.9
-206.7
-208.6
-211.7
-214.5
-215.6
-214.7
-212
-208.1
-204.3
-201
-199.1
-198.6
-199
-199.8
-200.4
-200.4
-200
-199.4
-199.3
-199.9
-201
-202.3
-203.1
-203.3
-202.7
-201.3
-199.4
-197.5
-195.5
-193.6
-192
-190.5
-189.3
-188.9
-189
-189.1
-187.8
-184.7
-180.2
-175
-170.4
-167.4
-166
-165.9
-166.1
-166.2
-165.5
-163.9
-161.5
-159
-156.5
-154.2
-152.2
-150.5
-149
-148
-147.1
-146.4
-145.4
-144.1
-142
-139.6
-137.1
-135.3
-134.6
-135.3
-137
-138.7
-139.5
-138.8
-136.5
-132.9
-128.5
-123.8
-119.4
-116.1
-114.9
-115.5
-118.1
-121.9
-126
-130.1
-133.1
-134.6
-134.9
-133.6
-131.2
-127.7
-123.6
-119.6
-116.2
-113.6
-112.5
-112.5
-113.5
-115.6
-117.7
-119.9
-120.8
-120.4
-118.9
-116.7
-114.5
-112.9
-111.9
-111.3
-110.7
-110.1
-109.6
-109.1
-109.2
-109.9
-111.1
-112.2
-113.4
-114.4
-115.4
-116.3
-117.3
-118.2
-119
-119.7
-120.4
-120.9
-121.5
-121.7
-121.4
-120.3
-119
-117.6
-116.5
-116
-116.1
-116.4
-116.4
-115.9
-115.1
-114.8
-115.2
-116.7
-119.5
-122.7
-126
-128.7
-130.6
-131
-130.8
-130.4
-130
-130.4
-131.8
-134.2
-137
-139.4
-140.7
-140
-137.4
-133.6
-129.5
-126.5
-124.7
-124
-123.7
-123.5
-123.5
-123.9
-125.9
-129.8
-135.6
-141.9
-146.9
-148.9
-147.5
-143.4
-138.4
-134.1
-131.5
-130.8
-131
-131.3
-131
-129.9
-128.2
-126.8
-127.1
-129.6
-134.2
-139.8
-144.9
-147.6
-147.7
-144.9
-140.1
-134.6
-130.1
-127.6
-127.6
-129.8
-133.4
-136.8
-139.2
-140
-139.1
-137.1
-134.5
-132.3
-131.3
-131.8
-133.5
-135.3
-136.5
-136.8
-136.2
-134.3
-131.3
-127.4
-123.7
-121.8
-122.5
-126
-130.5
-134
-134.7
-132.2
-127.9
-123.1
-119.6
-118
-118.3
-120.1
-122.7
-125.3
-127.9
-130
-131.8
-132.7
-132.3
-131.1
-129.3
-127.3
-125.6
-124.3
-123.9
-124.2
-124.5
-124.7
-124.3
-124
-123.4
-123.1
-123.1
-123
-122.3
-121.1
-119.6
-118.1
-117.2
-117.4
-118.5
-119.5
-119.7
-118.2
-115
-110.9
-106.6
-103
-100.2
-98.2
-96.9
-96.3
-96.3
-97.1
-98.1
-98.7
-98.1
-96.2
-93.3
-90.5
-89
-88.9
-90
-90.9
-91
-90.1
-88.8
-87.8
-87.2
-86.4
-85.1
-82.8
-80
-77.3
-75.5
-74.4
-73.6
-72.6
-71.5
-69.7
-67.4
-64.7
-62
-59.3
-56.6
-54.6
-53.6
-54.1
-55.5
-56.7
-57.2
-56.1
-53.6
-49.8
-45.9
-42.4
-40
-38.7
-37.9
-36.8
-35.1
-32.9
-31.3
-30.8
-31.2
-32.2
-33.3
-33.9
-34.1
-34.1
-34.2
-34
-33.1
-31.8
-29.8
-27.1
-23.2
-18.8
-14.1
-9.7
-6.4
-4.5
-3.9
-4.6
-5.8
-6.8
-6.7
-5.7
-4.3
-3.5
-3.6
-4.8
-5.9
-6.6
-6.7
-6.1
-5.6
-5.6
-6.5
-7.6
-8.1
-6.9
-3.8
0.7
5.5
8.8
9.5
7.2
3.1
-0.9
-2.6
-1.3
3.5
9.9
15.8
19.5
20.4
18.7
15.8
13.2
11.8
11.4
11.3
10.9
10
9
8.6
9.3
11.3
13.5
14.9
14
10.4
5.4
0.6
-1.8
-0.9
2.4
7.2
11.1
12.5
10.7
5.4
-1.9
-9.4
-14.8
-17
-15.5
-12
-8.3
-6.4
-7.3
-10.3
-14
-16.8
-18.1
-18.3
-18.6
-19.7
-22.3
-25.9
-30
-33.8
-36.9
-39.5
-42.2
-45.3
-48.3
-50.4
-50.9
-50
-48.3
-46.7
-46
-46.5
-48.2
-50.8
-54.3
-58.9
-64.5
-70.3
-75.9
-80.4
-83.7
-85.3
-85.3
-83.6
-79.6
-73.4
-66.1
-60.2
-57.7
-60.2
-67.2
-77.1
-87.2
-95.2
-99.5
-100.1
-98.2
-96
-95.3
-97.3
-102.2
-108.6
-115.1
-120.1
-122.6
-122.6
-120.5
-116.9
-112.8
-109.8
-109
-111.1
-116.7
-124.2
-132
-138.6
-142.5
-143.6
-142.4
-139.6
-136.3
-133.1
-130.7
-129.6
-129.9
-131.6
-133.9
-136
-137.6
-138.7
-139.1
-138.7
-138
-137.5
-137.7
-138.9
-140.6
-142.3
-143.2
-143.2
-142.4
-141.4
-141.1
-142.2
-144
-146.3
-147.9
-148.1
-146.9
-144.4
-141.5
-138.7
-136.1
-133.8
-131.8
-130.1
-129
-128.4
-128.7
-129
-129
-128.7
-128.1
-127.6
-127.6
-128.7
-131.1
-134.4
-137.7
-140.2
-141.3
-140.9
-139.1
-136.9
-134.7
-133
-131.4
-129.3
-126.2
-122.1
-117.7
-113.8
-111.8
-111.7
-113.5
-117.1
-121.2
-125
-127.2
-127.7
-126.8
-124.7
-121.6
-117.9
-113.9
-110.8
-109.3
-109.8
-111.6
-113.9
-115.6
-116.3
-116
-115
-114
-112.8
-111.6
-110.5
-109.6
-109.1
-109.4
-110.4
-111.7
-113.1
-114.3
-116
-117.9
-120
-121.5
-121.8
-120.5
-117.7
-114.2
-110.9
-108
-105.9
-104.2
-102.4
-100.3
-98
-96.3
-95.2
-95.2
-96
-97.4
-98.5
-98.2
-96.4
-93.5
-90.6
-88.9
-89.6
-92.4
-96.5
-101.1
-104.9
-107.9
-110.1
-111.4
-111.6
-110.3
-107.6
-104.2
-101
-99.2
-99.4
-101.8
-105.6
-109.6
-112.2
-112.7
-111.6
-110
-108.9
-109.5
-112.1
-116.5
-121.5
-126.1
-128.9
-129.5
-127.7
-124.6
-121.7
-120.2
-120.2
-121.8
-124.3
-126.4
-127.4
-126.6
-124.6
-122.2
-120.3
-119.9
-121.3
-124
-127.1
-129.9
-131.8
-132.4
-132.1
-131.8
-131.9
-132.9
-134.9
-136.9
-138.4
-138.4
-136.6
-134
-131.6
-130.7
-132.5
-136.6
-142.2
-147.6
-151.5
-152.8
-151.7
-148.5
-145.5
-143.8
-144.4
-147
-150.3
-152.8
-154
-153.7
-152.9
-152.8
-153.9
-156.6
-160.5
-164.7
-167.4
-167.8
-166.3
-163.9
-161.8
-160.6
-160.3
-160.4
-160.7
-161.2
-161.6
-161.8
-161.6
-161.3
-161.5
-162.2
-163.5
-164.5
-164.7
-163.7
-161.3
-158.5
-156.6
-156.2
-157.7
-160.6
-164
-167.1
-169.2
-170.1
-170.3
-170.4
-171
-172
-173.8
-175.3
-175.7
-174
-169.7
-163.6
-157.3
-152.7
-151.2
-152.6
-155.2
-158
-159.9
-160.7
-161.1
-161.6
-162
-162.1
-161.8
-161
-160.2
-159.4
-158.8
-158.1
-157.4
-156.3
-155
-152.8
-149.7
-145.4
-140.5
-136.1
-133.2
-132.7
-134.3
-137
-139.9
-142.3
-144.2
-145.2
-145.2
-143.8
-141.2
-137.5
-133.9
-131
-129.8
-130.2
-131.4
-132.5
-133
-132.8
-132.3
-132.1
-132.2
-132
-131.5
-130.8
-130.6
-131.2
-133.5
-137.1
-142
-146.6
-149.4
-149.7
-147.2
-143
-138.3
-134.3
-131.5
-130.6
-131.4
-133.2
-135.1
-136
-134.9
-131.9
-127.6
-122.8
-118.2
-115.1
-113.8
-114
-115.1
-116.6
-117.7
-118
-117.7
-117.2
-117.2
-117.8
-119
-119.8
-120.4
-120
-119
-117.4
-115.6
-113.8
-112.6
-112.3
-112.8
-113.6
-114.2
-113.9
-113.2
-112.6
-111.8
-110.4
-107.5
-103.1
-98.7
-96.2
-96.9
-100.6
-106.1
-111.6
-115.6
-117.2
-116.2
-113.4
-110.2
-107.3
-105.2
-103.5
-102.1
-100.8
-100.1
-100.3
-101.2
-102.6
-104.4
-106.6
-109.3
-112.6
-116.4
-120.4
-124
-125.9
-125.3
-122.5
-118.8
-115.3
-113.1
-112.4
-112.9
-114.1
-115.7
-118.4
-121.9
-126.1
-129.7
-132.2
-133.2
-133
-131.5
-129.3
-126.5
-124.1
-122.6
-122.8
-124.6
-127.7
-131.7
-136
-140.1
-143.9
-147
-149.3
-150.5
-150
-147.8
-144.3
-140.3
-136.9
-134.4
-133.3
-133.6
-135.2
-137
-138.5
-139.2
-138.9
-137.8
-135.8
-134.1
-133.1
-133.8
-136.1
-139.6
-143.6
-147.1
-149.8
-151.3
-151.9
-151.8
-151.8
-152.2
-153
-154
-155
-155.2
-154.2
-151.9
-148.7
-145.7
-143.3
-141.9
-141.7
-142.2
-143.3
-144.9
-146.9
-148.7
-149.7
-148.9
-146.7
-142.5
-138
-134.7
-134
-136.9
-142.6
-149.9
-157.2
-162.8
-165.7
-165.6
-162.7
-158
-152.8
-148.5
-145.9
-145.2
-146.3
-147.9
-149.5
-150
-149.3
-147.6
-145.3
-143
-141.4
-141
-141.9
-143.8
-145.4
-145.9
-145
-143.1
-141.5
-141
-142.2
-144.9
-148
-150.2
-150.5
-148.8
-145.6
-141.2
-136.8
-133.4
-131.8
-131.4
-131.4
-130.6
-128.1
-124.5
-120.4
-117.1
-115.6
-116
-118
-120.8
-123.5
-125.8
-127.2
-128
-128.1
-127.9
-127.1
-126
-124.9
-123.4
-121.8
-120.1
-118.2
-116.4
-114.9
-114.3
-114.3
-114.4
-114.5
-114.3
-113.8
-113.8
-114.5
-115.8
-116.5
-115.6
-113.2
-109.5
-105.3
-101.3
-97.7
-95.3
-94.1
-93.9
-94.3
-94.8
-94.9
-94.6
-93.9
-93.1
-92.8
-93.2
-94.5
-96.1
-98
-99
-98.8
-97
-94.4
-91.6
-89.4
-88.1
-87.8
-88.8
-91
-93.6
-96
-97.4
-97.4
-96.4
-94.8
-92.6
-89.4
-84.4
-77.1
-68.8
-60.7
-54.3
-49.6
-46.4
-43.5
-40.3
-36.6
-32.9
-30.9
-30.9
-33.1
-36.4
-39.5
-41.4
-41.9
-40.9
-38.8
-36.3
-34.2
-33.6
-34.3
-35.9
-37.8
-39.3
-39.6
-38.4
-36.4
-34.6
-34.5
-36.4
-39.6
-43.1
-45.8
-47.7
-48.7
-49
-49
-47.8
-45.6
-42.5
-39.6
-37.1
-35.4
-34.6
-34.1
-33.7
-33.4
-33.2
-33.5
-34.3
-35.8
-37.7
-39.7
-42.1
-44
-45.2
-44.7
-42.8
-40
-36.8
-33.8
-31.8
-31.4
-32.9
-36.6
-42.1
-48.3
-54.3
-59.3
-63
-65.4
-66.3
-66.1
-64.8
-63.3
-61.8
-60.7
-60.8
-62.1
-64.6
-68
-71.7
-74.9
-77.9
-80.3
-82.5
-84.6
-86.7
-89.4
-92.9
-97.3
-102.5
-107.9
-112.8
-117
-120.5
-123.9
-127.3
-131
-133.9
-135.2
-134.4
-131.5
-128
-124.7
-122.6
-122.4
-123.6
-125.6
-127.2
-127.6
-126.9
-125.6
-124.4
-124
-125
-127.1
-130.4
-134.1
-137.9
-141.2
-143.9
-146.1
-147.1
-147.1
-146.5
-145.7
-145.1
-145
-145.6
-146.7
-148.1
-149.6
-151.1
-153
-155.5
-158.7
-161.8
-163.9
-164.3
-162.8
-159.2
-154.6
-149.9
-145.9
-143.4
-142.5
-143.1
-145.1
-149.3
-155.6
-162.9
-170.1
-175.9
-179.9
-182.5
-184.3
-185.9
-187.7
-189.3
-189.8
-189.1
-186.9
-183.7
-180.1
-176.9
-174.5
-173.5
-174.4
-176.5
-179.4
-182.2
-184.3
-185.5
-185.5
-184.9
-183.7
-182.7
-181.8
-181.5
-182
-183.7
-186.8
-191.2
-195.9
-199.8
-201.9
-202
-200.5
-198.6
-197.2
-197.1
-198.4
-200.8
-203.3
-205.1
-205.8
-205.5
-204.5
-202.9
-201
-198.7
-196.3
-194.4
-194.3
-196.4
-200.9
-206.9
-213.5
-219.2
-223
-224.8
-224.7
-223.7
-222.1
-220.7
-219.6
-219.1
-219.1
-219.8
-221.2
-223
-224.5
-225.5
-225.3
-224
-221.5
-218.4
-214.9
-211.9
-209.7
-208.4
-207.8
-207.9
-208.7
-209.8
-211.1
-212.5
-214.2
-215.7
-216.6
-216.7
-215.3
-212.3
-207.9
-202.6
-197.1
-192.4
-189.3
-188.1
-189.2
-192.3
-196.5
-200.3
-202.3
-202.1
-200.2
-197.5
-194.6
-192.1
-190.1
-188.2
-186.7
-185.4
-185.1
-185.9
-187.2
-188.2
-187.8
-186
-183.1
-180.3
-178.8
-179.8
-183
-187.2
-191.2
-194.6
-197.5
-200.5
-204
-207.5
-210.8
-213.2
-214.7
-215.4
-215.7
-216
-217.1
-219
-221.4
-223.7
-224.8
-224.7
-223.1
-220.5
-216.9
-213
-208.9
-205
-202.2
-200.7
-200.4
-200.8
-201
-200.3
-199
-197
-194.8
-192.2
-188.5
-183.2
-176.5
-169.1
-161.7
-154.9
-149.4
-145.6
-143.3
-141.5
-138.3
-132.4
-123.2
-111.7
-99.6
-88.8
-79.6
-71.3
-63.3
-54.4
-44.2
-32.8
-20
-6.7
6.2
18.8
30.3
41
51.9
63.5
76.6
91.5
106.8
121.8
135.2
146.3
155.5
163.8
172.2
181.9
193.1
205.5
218.6
231.3
243.6
255.5
267.3
278.4
288.6
297.5
305.7
314.2
323.4
334
345.7
358.2
370.7
381.9
391.8
399.6
405.5
409.6
411.3
410.7
408.1
404.1
399.9
396.5
394.7
394
393.6
392
388.5
382.7
374.9
366
356.8
347.9
339.7
332.5
325.8
319.3
312.7
306
299.2
292.5
285.8
278.4
269.2
257.8
243.4
226.9
209.5
192.6
177.7
164.5
152.5
140.4
126.6
110.1
90.8
70.4
50.7
33.9
21
11.7
4.5
-2.1
-8.9
-16.6
-25.2
-35
-46.1
-58.6
-71.7
-84.7
-96.5
-106.3
-114.4
-121.7
-129.2
-137.9
-147.8
-159.1
-170.9
-182.5
-192.8
-200.7
-206.1
-209.1
-209.9
-209.4
-208.1
-206.5
-205.4
-204.7
-203.8
-202.6
-200.4
-197.7
-195.4
-194.1
-194
-194.7
-194.9
-194.3
-192.7
-190.4
-188.4
-187
-186.6
-186.9
-187.1
-186.8
-185.7
-184
-182
-180.4
-179
-178.2
-178
-178.3
-179.3
-180.4
-181.4
-181.8
-181.3
-179.7
-177
-173.5
-170.2
-168.2
-167.7
-168.3
-168.8
-168
-166
-163.5
-161.2
-160
-159.9
-160.8
-162.3
-164.4
-166.4
-168.4
-169.5
-169.6
-168.9
-167.9
-167.1
-166.7
-166.2
-165
-162.7
-159.5
-156.6
-155.1
-156.3
-160.1
-165.4
-170.2
-172.6
-171.9
-168.3
-163.8
-160.1
-158.7
-160.4
-165.1
-172.2
-180.4
-187.6
-191.9
-191.9
-187.4
-180.2
-172.6
-167.3
-165.5
-167.1
-170.8
-175
-178.3
-180
-180
-178.3
-175.3
-171.4
-167.5
-163.5
-159.9
-157.1
-155.1
-154.1
-153.3
-152.8
-152.1
-151.3
-150.7
-150.7
-151.6
-153.4
-155.4
-156.9
-157.6
-156.8
-154.8
-152.6
-150.5
-149
-147.8
-146.6
-144.9
-142.9
-140.8
-138.3
-135.5
-132.8
-130.3
-128.6
-127.5
-126.6
-125.7
-124.2
-122.4
-120.7
-119.7
-119.2
-119.1
-118.6
-117.8
-116.7
-116.5
-117.1
-118.2
-119.1
-118.7
-116.6
-113
-108.8
-104.5
-101
-98.5
-96.5
-94.4
-91.9
-88.8
-86
-83.7
-82.8
-83.1
-84.6
-86.5
-88.3
-90
-91.4
-92.6
-94
-95
-95
-93.7
-91.2
-88
-85
-82.8
-81.1
-79.7
-78
-75.7
-73
-70.1
-66.8
-63.8
-61.2
-59.4
-58.4
-57.6
-56.8
-56.2
-56.7
-58.8
-62.2
-66
-69.1
-70.6
-70.2
-68.5
-66.6
-65.4
-65.2
-66.4
-68.6
-71.4
-74.1
-75.7
-76.1
-75.7
-75.3
-75.2
-75.5
-76.2
-77
-78
-79.5
-80.8
-81.5
-81.8
-81.7
-81.3
-81
-80.7
-80.2
-79.4
-78.1
-76.6
-75.4
-74.8
-75.7
-78.3
-81.8
-85
-86.5
-85.3
-82.2
-78.7
-76.4
-76.3
-78.4
-81.8
-84.6
-86.3
-86.8
-86.8
-87.1
-88.1
-89.5
-91.2
-92.8
-94.3
-95.3
-96
-95.5
-94
-91.3
-87.9
-85.2
-83.8
-84.3
-87
-91.5
-97.5
-103.7
-109.8
-114.5
-117.6
-118.7
-118.1
-115.6
-111.7
-107.2
-103.3
-100.9
-100
-100.3
-101.1
-102.5
-104.3
-105.9
-106.9
-107
-106.4
-105.4
-104.6
-104.7
-105.9
-108.3
-111
-113.5
-115
-115.4
-114.9
-113.5
-111.7
-110.1
-109.6
-110.6
-113.1
-116.9
-121.3
-125.6
-128.6
-129.7
-128.7
-126.4
-123.9
-122.5
-122.6
-124.1
-126.3
-128
-128.6
-128.2
-127.4
-126.5
-125.5
-124.5
-123.4
-122
-120.4
-119.1
-118.5
-118.7
-119.9
-122.5
-126.3
-131.1
-136
-140.1
-142.3
-142.1
-139.9
-136.2
-131.6
-127
-122.7
-119.1
-116.3
-114.4
-113.5
-114
-116.1
-119.6
-124.2
-128.7
-132.6
-135
-135.6
-133.5
-129
-123.2
-117.8
-114.3
-113.2
-113.6
-114.6
-115.2
-114.7
-113.4
-112
-110.2
-108.5
-107.1
-106
-105.7
-105.8
-106.4
-107.2
-108.1
-108.7
-109
-108.4
-106.9
-105.1
-103.3
-102.5
-102.3
-102.6
-102.8
-102.6
-102.2
-101.1
-99.9
-98.7
-98.1
-97.9
-98.2
-98.9
-99.4
-99.1
-98
-96.5
-95.6
-95.7
-96
-95.6
-94.5
-92.5
-91.1
-91.2
-92.5
-94.2
-95.4
-94.6
-91.4
-86.2
-79.1
-72.4
-67.5
-65.3
-65.8
-68
-70.6
-72.3
-73.2
-73.4
-73.3
-73
-72.3
-71.1
-69.8
-68.2
-66.8
-66
-65.4
-64.6
-63.2
-61.1
-58.7
-56.2
-53.6
-51.3
-49.1
-47.7
-47.1
-47.4
-48.2
-48.7
-48.5
-47.5
-46.4
-45.3
-44
-42.7
-41
-39.4
-38.5
-38.8
-40
-42.1
-44.2
-46.2
-47.7
-48.4
-47.8
-46.1
-43.5
-41.3
-39.7
-39.2
-39.7
-40.4
-40.9
-41.3
-41.3
-41.1
-40.3
-39.1
-38
-37.4
-37.9
-39
-40.3
-41.1
-40.4
-37.7
-33.5
-27.6
-21.2
-15.7
-12.2
-11.7
-13.5
-16.6
-19.6
-21.3
-21
-19.1
-16.2
-13.5
-12.2
-12.9
-15.3
-18.7
-21.5
-22.1
-19.8
-14.9
-8.3
-1.4
4.4
7.9
9
7.6
5.2
2.8
0.9
-0.8
-2.8
-4.5
-5.4
-4.9
-3.2
-0.7
1
1.3
0.5
-0.8
-2.4
-3.6
-4.5
-5.8
-7.7
-10.1
-12.2
-12.9
-11.5
-7.8
-2.3
3.6
8.7
12.1
13.5
13.1
10.8
7.3
2.7
-2.4
-7.1
-10.5
-11.8
-10.9
-7.8
-3.6
0.3
3.1
4.3
4.2
3.7
3.3
3.4
3.5
3.1
2.1
0.7
-0.5
-0.7
0
1.9
4.1
6
6.8
5.9
3.3
-0.9
-6.3
-11.8
-16.1
-18.7
-19.2
-18.1
-15.9
-13.4
-11
-9.4
-8.2
-7.9
-7.9
-8.2
-8.7
-9.8
-11.5
-13.9
-17
-20.1
-23.3
-26.1
-28.5
-30.8
-32.9
-35.6
-38.6
-41.8
-45.2
-48.4
-51.9
-56.3
-61.5
-66.7
-71
-73.6
-74.9
-74.8
-73.4
-71.4
-69.4
-67.8
-67.1
-67.7
-69.4
-71.8
-74.5
-77.6
-80.5
-83.4
-85.3
-86
-85.8
-85.8
-86.9
-89.6
-93.3
-96.9
-99.7
-101.8
-103.1
-104.1
-105.4
-107.2
-109.7
-112.5
-115.3
-117
-117.2
-115.8
-113.2
-110.6
-109
-109.4
-111.5
-114.8
-118.1
-120.8
-122.7
-124
-125.6
-127.9
-130.7
-133.5
-135.4
-136.1
-135.5
-134.3
-132.9
-132.1
-131.8
-132.1
-132.8
-133.3
-133.2
-132.4
-130.7
-128.3
-125.6
-122.9
-120.7
-119.4
-119.6
-121.3
-124.6
-129.5
-134.9
-139.6
-142.4
-142.4
-140.2
-136.3
-131.9
-127.8
-124.1
-121.5
-120.4
-120.9
-123.1
-127.1
-131.6
-135.2
-137.3
-137.8
-137.3
-136.8
-136.9
-137.3
-138
-138.2
-137.4
-135.1
-131.9
-128.5
-125.7
-123.8
-123
-123.3
-123.7
-123.7
-123
-122.6
-123
-125.3
-128.8
-132.8
-136.3
-138.1
-138.1
-136.7
-134.8
-133.3
-132.2
-130.8
-128.1
-123.8
-118.3
-113
-109.4
-108.2
-109.7
-112.7
-115.7
-117.3
-117.4
-115.7
-113.6
-111.9
-111.4
-112.1
-113.5
-114.7
-114.8
-113.5
-110.4
-106
-101.2
-97.2
-94.4
-93.2
-93.6
-94.8
-96.4
-97.7
-98.5
-98.9
-98.6
-98.2
-97.8
-97.6
-97.5
-97.7
-98
-98.6
-99
-98.6
-97.3
-95.3
-93.3
-92.1
-91.6
-91.3
-90.8
-89.2
-86.4
-82.7
-78.9
-76.5
-76.4
-79.2
-84.9
-92.8
-101.9
-110.5
-117.4
-121.3
-121.9
-119.6
-115.6
-111.1
-107.5
-105
-104.1
-104.5
-105.6
-106.8
-107.9
-108.9
-110.1
-111.5
-112.9
-114
-114.3
-113.3
-110.7
-107.1
-103.2
-99.9
-98.1
-98.3
-100.7
-104.8
-109.8
-114.8
-118.8
-121.2
-121.4
-119.1
-114.5
-108.4
-102
-96.6
-92.9
-91.1
-91.4
-93.5
-96.9
-101
-104.7
-107.6
-109.7
-111.2
-112.3
-113.4
-114.4
-115.2
-116.1
-117.3
-119
-121
-123.1
-124.4
-124
-120.8
-115
-107.3
-100.1
-95.8
-96.3
-101.3
-109.1
-117
-123.1
-126
-126.1
-124.1
-121.5
-119.4
-118.5
-118.9
-120.5
-122.7
-125.5
-128.5
-131.6
-134.8
-137.3
-139.1
-139.2
-137.7
-135
-132.2
-129.7
-128.3
-128.1
-129
-130.4
-131.3
-130.7
-128.8
-126.2
-123.9
-122.4
-122.1
-122.6
-123.7
-125.2
-127.1
-129.1
-130
-128.9
-125.4
-120.7
-116.1
-113.1
-113
-115.4
-119.8
-125.1
-130.3
-134.4
-137.5
-139.4
-141.3
-143.2
-146.1
-149.5
-153.2
-156.5
-159.1
-159.8
-158.9
-156.8
-154
-151.5
-149.2
-147.3
-145.5
-143.8
-142.3
-140.9
-139.8
-139.8
-141.4
-145.2
-150.4
-155.7
-160.3
-162.8
-162.3
-159.2
-154.1
-148.4
-143.4
-140.9
-141.6
-145.1
-150.3
-155.2
-158.9
-160.6
-160.6
-159.6
-157.7
-155.9
-154.3
-153.5
-153
-152.5
-151.1
-149
-145.7
-142
-137.9
-134
-131.1
-130
-131.3
-134.5
-138.5
-141.8
-142.8
-140.6
-135.5
-128.4
-120.4
-112.8
-106.6
-103.1
-102.8
-105.9
-112.1
-120
-127.5
-132.8
-135.4
-135.3
-133
-128.8
-123.7
-117.9
-112.3
-107.4
-103.7
-101.3
-100.2
-99.9
-100
-99.7
-98.8
-97.7
-97.1
-97.6
-99.1
-101.5
-103.6
-104.5
-103.7
-101.1
-97.1
-92.6
-87.9
-83.9
-81.2
-80.3
-81.6
-84.3
-87.4
-89.9
-91
-90.1
-87.5
-84.5
-81.8
-80
-78.9
-77.9
-76.5
-74.7
-73.1
-72.6
-73.5
-75.8
-78.6
-81.1
-82.5
-82.6
-82.1
-81.7
-82
-83
-84
-84.6
-85.2
-85.7
-86.5
-87.4
-89
-91.3
-93.6
-95
-94.3
-91.1
-86.9
-83.3
-81.8
-82.4
-84.1
-85.6
-85.7
-85
-84.2
-83.9
-84.1
-84.5
-85.2
-86.2
-87
-87.2
-86.7
-85.6
-84
-82.9
-81.7
-81.1
-80.6
-80.3
-79.9
-78.9
-76.8
-73.7
-70.7
-68.3
-67.4
-67.7
-68.7
-69.7
-69.9
-69.2
-67.7
-65.4
-63.2
-61.4
-60.7
-61.5
-64.3
-68.9
-74.8
-80.8
-85.5
-87.8
-87.4
-85.2
-82.4
-80.7
-81
-83.3
-86.8
-90.3
-92.7
-93.6
-93
-90.9
-88.3
-85.9
-84.7
-85.4
-87.7
-91
-93.7
-94.4
-93.1
-90.5
-87.3
-84.8
-83.6
-83.9
-85.2
-86.8
-88.1
-89.2
-89.9
-90.8
-92.1
-93.7
-95.1
-95.7
-94.9
-92.8
-89.5
-85.6
-81.4
-77.6
-74.8
-74.2
-76
-79.9
-84.4
-88.3
-90.6
-91.3
-90.9
-89.9
-88.5
-86.8
-85.1
-83.2
-81.3
-79.4
-77.4
-75.5
-73.6
-71.6
-69.6
-67.9
-66.9
-66.8
-67.8
-70
-72.9
-76.2
-79
-79.9
-78.4
-74.3
-69
-64.1
-60.8
-60
-61.6
-65.9
-71.6
-78.1
-83.6
-87
-88.1
-87.9
-87.2
-86.7
-86.6
-87.2
-88.7
-91
-94.1
-97.5
-100.3
-101.5
-101
-99
-96.5
-93.9
-91.7
-89.9
-88.6
-88
-88.3
-89.2
-90.2
-90.3
-89.2
-86.9
-84.3
-82.8
-83.1
-86
-90.4
-94.7
-97.4
-97.7
-95.5
-92.3
-89.4
-87.9
-88.1
-89.4
-91.1
-92.7
-94.1
-95.6
-97.2
-98.2
-98.1
-96
-92.1
-87.4
-82.9
-79.8
-78.4
-78.1
-78.1
-77.6
-75.7
-71.8
-65.5
-57.5
-49
-41.4
-35.9
-33.1
-32.8
-34.4
-37.4
-41.4
-45.8
-50.3
-54.1
-56.7
-58.1
-58.6
-58.5
-59.1
-61.3
-65.1
-69.7
-73.5
-74.9
-72.9
-68.6
-64
-60.8
-59.6
-60.2
-61
-61.6
-61.4
-60.6
-59.5
-58.5
-57.3
-56.1
-54.6
-53.5
-53
-53.2
-53.9
-54.6
-55.4
-55.5
-55.8
-56.5
-57.2
-57.8
-57.9
-57.1
-56.2
-55.4
-55.1
-55.6
-57.5
-61
-66.4
-72.5
-78.5
-82.9
-85
-85.1
-84.2
-83.3
-83.2
-83.7
-84.4
-85.1
-85.1
-85
-85.4
-86.5
-88.5
-91.2
-93.5
-94.9
-95.2
-95.2
-95.3
-96.4
-98.5
-101
-103.4
-105.8
-108.3
-111
-113.5
-115.3
-116.1
-116.7
-116.8
-116.1
-114.1
-110
-104.5
-98.9
-95.4
-95.3
-99.5
-107.1
-115.8
-123.3
-127.6
-128.2
-126.3
-124
-122.4
-121.8
-121.9
-121.4
-119.7
-116.6
-113
-109.9
-108
-107.2
-107.4
-108.3
-110.4
-113.9
-118.1
-122
-123.9
-122.7
-118.5
-112.4
-106.1
-101.6
-100.1
-102.1
-106.9
-113.3
-119
-122.6
-123
-120.8
-117
-112.8
-109.6
-107.9
-108
-109.1
-110
-109.8
-107.7
-104.3
-100.9
-98.7
-98.6
-100.5
-103.8
-107.1
-109.1
-108.9
-106.6
-102.9
-98.9
-95.4
-92.9
-91.5
-91.2
-92
-93.9
-96.9
-100.1
-103.3
-105.5
-106.5
-106
-104.9
-103.8
-103.1
-102.7
-102.2
-101.4
-100.5
-100.6
-101.7
-103.7
-105.4
-106
-105
-103.1
-101.4
-101
-102.7
-106.8
-112.6
-119
-124.5
-128.4
-130.5
-131.5
-131.6
-131.1
-130
-127.5
-124.2
-120
-115.4
-110.8
-106.8
-103.4
-100.8
-99.3
-99.3
-100.7
-103.5
-106.8
-110.2
-113.1
-115.2
-116.6
-117.7
-118.3
-118.8
-119.2
-119.4
-119.1
-119.1
-119.1
-120
-121.3
-122.1
-122.5
-122
-120.9
-119.7
-118.9
-119.5
-121.1
-123.5
-126.4
-128.8
-130
-129.4
-127
-123.3
-119.6
-117.3
-117.6
-120.9
-126.3
-132.8
-138.8
-142.9
-144.3
-142.8
-139.6
-135.7
-132.7
-130.6
-128.9
-126.8
-124.4
-122.4
-121.2
-121.2
-122
-123.3
-124.8
-127.5
-132.1
-139.2
-148.8
-159.5
-169.5
-177.2
-182.5
-185.6
-188
-190.4
-193.8
-198.3
-203.8
-209
-212.6
-214
-213
-210.5
-207.4
-205.4
-204.4
-204.7
-205.1
-205.2
-204.4
-203.5
-203
-203.2
-204.1
-204.9
-205.1
-204
-201.8
-198.8
-195.7
-193.2
-191.1
-189
-186.8
-184.2
-181.7
-179.2
-176.5
-172.9
-168.2
-162.5
-156.3
-150.2
-144.3
-137.7
-129.7
-119.1
-106.5
-92.5
-77.6
-63.1
-49.8
-37.9
-27.1
-17.4
-7.9
2.6
14.7
28.5
43.3
58.4
72.9
86.3
98.6
109.9
120.6
131.8
143.4
155.7
168.5
181.6
194.9
209.1
223.8
238.8
252.8
265.1
275.1
283.5
291.8
301.2
312.3
324.3
336.6
348.1
358.5
368
377.4
386.9
397
406.8
415.8
422.7
427.2
429
428.9
428.2
427
424.9
421.5
416.6
409.8
401.2
391.5
381.5
372.5
365.4
360.7
358.2
356.7
354.9
350.5
342.9
332.3
319.6
306
292.9
281.1
270.9
261.9
253.2
243.6
232.7
220.5
207
192.2
175.9
158.6
140.9
123.5
106.6
90.2
74.3
59.1
44.8
31.8
20.2
9.7
-0.2
-10.8
-23.1
-37.6
-53.8
-70.8
-87.1
-101
-111.3
-118.1
-122
-124.7
-128.4
-134.1
-142.1
-151.4
-160.8
-169.4
-176.5
-182
-185.8
-189.2
-192.8
-197
-201.9
-206.5
-209.8
-211.4
-211
-208.7
-205
-200.4
-194.7
-188.4
-182.2
-176.2
-171.5
-168.1
-165.9
-164.9
-164.1
-162.7
-160.4
-156.7
-151.7
-145.9
-140.1
-134.9
-130.5
-126.9
-124.3
-122.1
-120.1
-118.7
-117.5
-116.7
-115.9
-114.9
-112.9
-109.6
-104.9
-99.7
-95.6
-93.8
-94.5
-97.3
-101.1
-104.9
-107.7
-109.5
-110.1
-109.9
-108.9
-107.4
-105.8
-104.4
-103.8
-104.5
-106.4
-109.2
-112
-114.3
-115.2
-114.7
-112.3
-108.3
-102.7
-97.1
-92.9
-90.9
-91.9
-95.6
-100.7
-105.6
-108.9
-109.8
-109.5
-108.9
-109.2
-111.1
-114
-117.3
-120.6
-123.6
-126.4
-128.5
-130.1
-130.6
-129.9
-128.3
-126.6
-125.1
-124.2
-123.6
-124
-124.9
-126.5
-128.1
-129.9
-131.8
-134
-136.4
-139.3
-142.7
-146.3
-149.8
-152.2
-153
-152.4
-150.5
-148.1
-146.4
-145.1
-144.3
-143.7
-143.1
-143
-143.3
-144
-145.1
-146.5
-147.6
-147.7
-146.2
-143
-139.1
-134.9
-131.3
-129.5
-130.7
-134.9
-141
-147.1
-150.9
-151.7
-149.7
-146.2
-142.2
-138.6
-135.5
-133.6
-132.8
-133.4
-135.8
-139.1
-142.3
-144.5
-145.6
-145.9
-145.6
-145.3
-145.6
-146.2
-146.4
-145.3
-143.2
-140.9
-139.9
-140.7
-143
-146
-148.8
-150.6
-151.8
-152.7
-153.5
-154.4
-154.6
-153.5
-151
-147.7
-144.9
-143.2
-142.8
-143.3
-144.2
-145
-145.8
-146.9
-148
-149.3
-150.1
-149.8
-148.6
-147.1
-145.6
-145.2
-145.7
-146.9
-147.6
-147.7
-146.6
-144.2
-140.8
-137.2
-134.5
-133.5
-134.4
-136.5
-139.1
-141
-142.2
-142.6
-142.5
-142.4
-142.7
-142.8
-142.7
-141.9
-140.2
-137.8
-135.5
-134
-133.5
-134
-134.9
-135.6
-136.3
-136.9
-138.4
-141
-144.5
-147.8
-149.7
-148.9
-144.8
-138.5
-131.3
-125.3
-122.1
-122.4
-126.4
-132.5
-138.9
-143.2
-144.4
-142.3
-138.6
-135.2
-134
-135.2
-138.2
-141.9
-144.9
-146.4
-146.2
-144.5
-141.9
-138.4
-134.6
-130.9
-127.6
-125.4
-124
-122.9
-121.6
-119.5
-117
-114.8
-113.7
-114.1
-116.2
-119.2
-122
-123.3
-122.2
-118.5
-112.8
-105.8
-99
-93.7
-90.7
-90.1
-91.2
-92.4
-92.9
-92
-90.1
-87.9
-86.6
-86.7
-88.8
-92.3
-96.2
-99.2
-100.3
-99.7
-97.8
-95.6
-93.9
-92.6
-91.5
-90.4
-89.2
-88.2
-87.8
-87.7
-87.6
-86.8
-85.5
-84.2
-83.7
-84.6
-86.7
-89.1
-91.4
-93
-94.1
-95.4
-97.7
-101.5
-106.1
-110.5
-112.9
-112.4
-108.7
-102.9
-96.7
-91.5
-87.7
-86.2
-86.6
-88.2
-90.1
-91.7
-92.3
-91.8
-90.6
-88.8
-86.9
-85.3
-84.3
-84.2
-84.8
-86.2
-88
-89.7
-90.9
-91
-89.7
-87.4
-85.1
-83.5
-83.4
-84.7
-87.2
-90.2
-92.7
-93.8
-92.9
-90.2
-86.5
-83.7
-82.7
-85
-90.3
-97.2
-104.2
-109.1
-111.5
-111.3
-109.2
-106.2
-102.8
-99.9
-97.5
-96.1
-95.5
-95.7
-96.5
-97.6
-98.9
-100.1
-101.4
-103
-105
-107.3
-109.3
-110.3
-109.8
-108
-105.4
-103.2
-102.2
-102.5
-104.1
-106.4
-108.3
-109.2
-108.8
-107.4
-106.1
-105.6
-106.2
-107.3
-108.1
-108.4
-108.4
-108.7
-109.4
-110
-110.3
-109.7
-108.1
-106.5
-105.4
-104.9
-104.8
-104.4
-103.1
-101.1
-98.9
-97.1
-96.2
-96.1
-96.6
-97.3
-98.2
-98.9
-99.4
-99.5
-99.4
-98.8
-98.1
-96.9
-95.4
-93.7
-92
-90.5
-89.5
-89.2
-89.9
-91.9
-95
-98.3
-101.3
-103.5
-104.3
-103.9
-102.4
-100.2
-97.8
-94.7
-90.2
-84.4
-77.5
-71.6
-68.2
-68.6
-72.4
-79.3
-86.9
-93.2
-96
-94.3
-88.7
-81.3
-74.2
-69
-66.2
-65.7
-66.1
-66.8
-67
-66.9
-66.6
-66.8
-67.7
-69.3
-70.8
-71.5
-71.5
-70.3
-68.4
-65.7
-62.2
-58.6
-55.3
-52.5
-50.9
-50.2
-50.2
-50.8
-51.3
-51.5
-51
-49.4
-47.3
-44.9
-43.2
-42.5
-43.1
-44.7
-47.4
-50.7
-54.3
-57.2
-58.3
-57.1
-53.9
-49.5
-45.1
-41.5
-39.3
-38.4
-38.5
-38.6
-37.9
-36.3
-34.3
-32.7
-31.6
-31.2
-30.9
-30.3
-29.8
-29
-27.9
-26.2
-23.3
-19.8
-16.7
-15
-15.1
-17.1
-20.5
-24.9
-29
-31.8
-32.2
-29.6
-24.6
-18.1
-12.2
-8.3
-7.5
-9.8
-13.9
-18.5
-21.6
-22.7
-21.5
-19
-16.4
-14.5
-13.9
-14
-14.1
-13.9
-13
-11.8
-10.4
-8.7
-6.8
-5
-3.6
-3.1
-3.7
-5.9
-8.6
-11.3
-13.3
-14.4
-14.4
-13.3
-10.9
-7.4
-3.1
1.1
4.5
5.9
5.2
2
-2.8
-7.8
-12.1
-14.9
-15.9
-15.7
-15
-14.7
-15.2
-16.2
-17.6
-18.8
-19.1
-18.8
-18.1
-17.6
-17.8
-18.7
-20.3
-22
-23.8
-25.1
-25.4
-24.1
-21.9
-19.7
-19.2
-21.3
-25.7
-31.6
-37.4
-41.6
-43.6
-43.6
-42.3
-40.9
-40.5
-42.1
-45.4
-50.1
-54.7
-57.4
-57.9
-56.4
-53.9
-52.5
-53.2
-56.1
-60.5
-64.7
-68
-70.4
-72.4
-74.2
-75.5
-76.1
-75.5
-74.1
-72.3
-70.9
-70.3
-70.5
-71.5
-72.7
-73.9
-74.7
-75.1
-75.1
-75.1
-75.1
-75.3
-75.5
-76.4
-78.1
-81.1
-85.6
-91.3
-96.7
-100.9
-102.8
-101.9
-98.2
-93.2
-88.1
-85.1
-85
-87.5
-90.9
-93.1
-92.4
-88.5
-82
-75
-70.1
-68.7
-71.3
-77.2
-84.7
-91.8
-97.6
-101.4
-103.5
-104.1
-103.9
-103.5
-103.5
-104
-105.1
-106.4
-107.2
-107.6
-107.6
-107.8
-109
-111.4
-115.1
-119.3
-123.1
-125.9
-127.1
-126.6
-124.2
-120.7
-117
-113.9
-112
-111.3
-111.3
-111.8
-112.6
-113.5
-114.9
-116.4
-118.4
-120.8
-123.7
-126.8
-129.2
-129.8
-128.1
-124.6
-120.3
-116.5
-114.3
-114.4
-116.6
-120.6
-125.2
